NO_OF_FRAMES	6000
NO_OF_DATA_TYPES	3
FREQUENCY	100
TIME_STAMP	2020-09-27, 14:25:09
DATA_INCLUDED	Position
DATA_TYPES	Mass_pos_X	Mass_pos_Y	Mass_pos_Z

Mass_pos_X	Mass_pos_Y	Mass_pos_Z	
-65.703	-218.732	393.058
-56.877	-220.892	394.788
-48.003	-222.466	396.117
-39.105	-223.394	397.067
-29.655	-223.849	397.585
-20.317	-223.712	397.650
-10.848	-223.030	397.258
-1.292	-221.776	396.310
8.235	-219.944	394.889
17.806	-217.564	392.943
27.413	-214.665	390.540
36.960	-211.056	387.625
46.357	-206.888	384.225
55.141	-203.422	380.674
64.437	-197.504	376.188
73.800	-190.850	371.288
82.843	-183.817	366.015
91.084	-177.994	360.853
99.584	-170.388	355.173
107.688	-162.441	349.271
115.535	-154.107	343.085
122.980	-146.008	336.841
130.215	-137.312	330.426
137.126	-128.345	323.856
143.612	-119.095	317.219
149.797	-109.553	310.628
155.526	-99.791	304.083
160.744	-89.679	297.708
165.349	-79.225	291.240
169.297	-68.823	285.038
172.786	-58.275	279.015
175.825	-47.611	273.336
178.202	-36.865	267.966
180.066	-25.961	262.967
181.243	-15.052	258.401
181.834	-4.147	254.342
181.861	6.836	250.862
181.298	17.837	248.009
180.032	28.605	245.834
178.089	39.116	244.321
175.492	49.347	243.452
172.264	59.275	243.210
168.430	68.877	243.578
164.013	78.130	244.540
159.037	87.010	246.077
153.526	95.494	248.172
147.502	103.559	250.809
140.991	111.182	253.971
134.015	118.340	257.639
126.599	125.009	261.797
118.766	131.166	266.429
110.540	136.789	271.515
101.945	141.853	277.040
93.004	146.336	282.987
83.741	150.214	289.338
74.180	153.464	296.075
64.344	156.064	303.183
54.496	158.043	310.471
44.311	159.432	317.894
34.143	160.152	325.263
24.028	160.329	332.570
13.829	159.998	339.882
3.780	159.090	346.946
-6.385	157.741	353.855
-16.797	155.885	360.404
-26.833	153.472	366.787
-36.840	150.557	372.824
-47.084	147.345	378.432
-56.684	143.606	383.791
-66.644	139.516	388.633
-76.157	135.184	393.079
-85.736	130.657	396.940
-95.305	125.853	400.199
-104.814	121.007	402.743
-114.226	115.957	404.650
-123.487	110.711	405.989
-132.525	105.299	406.706
-141.505	99.572	406.785
-150.309	93.704	406.284
-158.787	87.678	405.176
-166.582	81.421	403.534
-173.694	74.949	401.390
-180.125	68.280	398.777
-185.876	61.432	395.729
-190.948	54.423	392.278
-195.343	47.269	388.457
-199.062	39.989	384.301
-202.105	32.599	379.840
-204.475	25.119	375.110
-206.173	17.565	370.143
-207.199	9.955	364.971
-207.555	2.307	359.628
-207.242	-5.362	354.148
-206.261	-13.035	348.562
-204.614	-20.693	342.905
-202.302	-28.319	337.210
-199.326	-35.895	331.508
-195.687	-43.404	325.834
-191.387	-50.828	320.221
-186.426	-58.150	314.701
-180.806	-65.352	309.308
-174.529	-72.416	304.074
-167.595	-79.325	299.034
-160.005	-86.061	294.219
-151.762	-92.607	289.663
-142.865	-98.944	285.400
-133.317	-105.056	281.461
-123.118	-110.924	277.881
-112.270	-116.532	274.692
-100.775	-121.861	271.927
-88.632	-126.894	269.620
-76.322	-131.320	267.908
-63.601	-135.144	266.687
-51.130	-138.093	265.915
-38.112	-140.490	265.402
-24.880	-142.345	265.232
-11.230	-143.795	265.336
2.714	-144.880	265.824
16.101	-145.882	266.785
29.017	-147.533	268.265
42.908	-145.674	269.706
56.200	-144.693	271.737
69.175	-143.410	274.059
81.910	-141.167	276.610
94.242	-138.850	279.670
106.154	-135.893	282.959
117.960	-132.494	286.430
129.377	-129.108	290.273
140.606	-125.255	294.191
151.722	-121.088	298.289
162.455	-116.380	302.478
172.877	-111.214	306.910
182.638	-105.524	311.499
191.703	-99.413	316.227
200.147	-92.671	321.065
207.794	-85.398	326.058
214.648	-77.837	330.970
220.691	-70.096	335.957
225.932	-62.305	340.844
230.478	-54.321	345.510
234.003	-46.198	350.130
236.826	-37.962	354.569
239.001	-29.724	358.762
240.541	-21.498	362.704
241.460	-13.301	366.389
241.770	-5.148	369.812
241.485	2.946	372.969
240.618	10.966	375.853
239.183	18.895	378.460
237.193	26.719	380.784
234.661	34.421	382.819
231.600	41.988	384.561
228.024	49.402	386.004
223.946	56.649	387.143
219.379	63.714	387.972
214.336	70.580	388.487
208.831	77.233	388.681
202.878	83.656	388.550
196.488	89.835	388.089
189.677	95.755	387.291
182.456	101.399	386.153
174.840	106.752	384.667
166.841	111.798	382.830
158.473	116.524	380.636
149.749	120.912	378.079
140.682	124.947	375.154
131.286	128.615	371.856
121.574	131.899	368.180
111.559	134.785	364.120
101.255	137.256	359.671
90.674	139.297	354.828
79.831	140.894	349.585
68.738	142.029	343.938
57.408	142.689	337.880
45.856	142.857	331.406
34.256	142.583	324.907
22.580	141.917	318.493
10.872	140.821	311.979
-0.781	139.298	305.627
-12.337	137.382	299.370
-23.720	135.007	293.245
-34.955	132.078	287.368
-45.785	128.835	281.800
-56.352	125.167	276.572
-67.022	121.067	271.841
-77.040	116.482	267.616
-86.641	111.476	263.823
-95.736	105.826	260.538
-104.361	99.868	257.712
-112.442	93.263	255.254
-119.998	86.184	253.224
-126.981	78.435	251.528
-133.404	70.288	250.338
-139.377	61.725	249.757
-144.829	52.830	249.690
-149.585	43.783	250.323
-153.673	34.538	251.809
-156.956	25.296	254.099
-159.571	16.016	257.009
-161.401	6.801	260.572
-162.680	-2.407	264.627
-163.149	-11.739	269.118
-162.794	-21.125	274.067
-161.992	-30.189	279.316
-160.539	-39.215	284.817
-158.577	-48.552	290.739
-155.420	-56.688	296.708
-152.348	-66.537	303.088
-148.387	-75.372	309.314
-144.369	-85.171	316.188
-139.235	-93.820	322.813
-133.703	-102.296	329.516
-127.645	-111.052	336.281
-121.014	-118.799	342.479
-113.553	-125.947	348.258
-105.854	-133.088	353.886
-97.765	-140.298	359.390
-89.265	-147.339	364.602
-80.554	-154.154	369.552
-71.809	-160.589	374.227
-62.575	-166.802	378.262
-53.294	-172.600	382.034
-44.143	-178.026	385.162
-34.652	-183.222	387.481
-25.443	-187.967	389.006
-15.938	-192.595	389.920
-6.441	-196.872	390.247
2.908	-200.808	389.981
11.763	-204.160	389.140
21.161	-207.504	387.915
30.079	-210.286	386.058
39.360	-212.862	383.759
49.122	-215.059	381.080
58.923	-216.587	377.915
68.187	-217.032	374.042
77.313	-216.550	369.743
86.175	-215.113	365.088
94.646	-213.019	360.180
101.978	-210.949	355.350
110.176	-206.769	350.167
117.574	-201.871	344.655
124.801	-197.307	339.676
132.071	-191.718	334.177
138.754	-187.040	328.937
144.687	-183.115	323.770
150.787	-177.911	318.436
156.458	-172.680	313.173
161.459	-167.188	308.024
165.711	-161.070	303.027
169.276	-154.857	298.310
172.597	-147.913	293.847
175.395	-139.796	289.539
177.597	-130.703	285.465
179.112	-120.954	281.697
180.046	-110.492	278.253
180.193	-99.314	275.183
179.806	-87.689	272.644
178.510	-75.772	270.520
176.928	-63.682	268.777
174.846	-51.478	267.507
172.254	-39.350	266.586
168.805	-27.257	266.026
164.756	-15.226	266.011
160.099	-3.261	266.321
154.995	8.569	267.075
149.425	19.998	268.089
143.514	31.244	269.423
137.121	42.035	270.937
130.303	52.648	272.705
123.068	62.776	274.715
115.257	72.338	276.947
107.176	81.768	279.501
98.786	90.951	282.364
90.044	99.873	285.541
80.900	108.541	289.065
71.536	117.010	292.946
61.996	125.122	297.205
52.244	132.959	301.844
42.586	140.435	306.669
33.095	147.286	311.702
23.484	153.640	316.855
14.080	159.327	321.990
5.012	164.376	327.050
-4.229	168.747	331.913
-13.442	172.399	336.632
-22.675	175.299	341.128
-31.989	177.457	345.513
-41.306	178.842	349.699
-50.937	179.517	353.710
-60.401	179.491	357.518
-69.959	178.785	361.218
-79.360	177.522	364.842
-88.445	175.763	368.480
-97.228	173.543	372.093
-105.507	170.803	375.549
-113.310	167.666	378.787
-120.523	164.119	381.785
-127.290	160.154	384.578
-133.621	155.745	387.204
-139.470	150.833	389.601
-144.815	145.540	391.735
-149.668	139.750	393.481
-153.979	133.715	394.812
-157.829	127.217	395.749
-161.192	120.378	396.152
-164.070	113.217	396.043
-166.467	105.750	395.443
-168.383	97.997	394.374
-169.823	89.976	392.859
-170.787	81.704	390.920
-171.278	73.199	388.579
-171.299	64.481	385.857
-170.851	55.566	382.777
-169.938	46.473	379.361
-168.562	37.220	375.630
-166.724	27.825	371.608
-164.427	18.307	367.315
-161.675	8.683	362.774
-158.468	-1.029	358.007
-154.809	-10.810	353.036
-150.701	-20.642	347.883
-146.146	-30.508	342.570
-141.146	-40.389	337.119
-135.703	-50.266	331.553
-129.821	-60.123	325.892
-123.501	-69.940	320.160
-116.745	-79.701	314.377
-109.556	-89.385	308.567
-101.937	-98.977	302.752
-93.889	-108.456	296.952
-84.801	-116.496	290.941
-75.621	-124.808	285.152
-66.192	-132.761	279.762
-56.383	-140.309	274.570
-46.639	-147.325	269.888
-36.886	-153.733	265.790
-26.932	-159.610	262.022
-17.309	-164.573	258.935
-7.402	-168.885	256.341
2.197	-172.366	254.312
12.017	-175.313	252.644
21.882	-177.639	251.482
31.682	-179.227	250.791
41.411	-180.331	250.686
51.144	-180.618	251.022
60.786	-180.224	251.927
70.448	-179.183	253.284
80.124	-177.674	255.223
89.386	-175.380	257.693
98.240	-173.542	260.772
107.303	-169.256	264.129
115.950	-164.690	268.167
124.406	-159.081	272.349
131.948	-155.164	277.280
139.365	-149.287	282.422
146.224	-142.879	287.801
152.342	-136.512	293.523
157.958	-129.261	299.448
162.887	-121.448	305.527
167.316	-113.200	311.694
171.060	-104.403	317.878
174.265	-95.296	324.204
176.859	-85.797	330.407
178.970	-76.150	336.544
180.686	-66.475	342.508
181.924	-56.516	348.355
182.793	-46.621	353.996
183.342	-36.538	359.352
183.629	-26.455	364.385
183.638	-16.359	369.067
183.307	-6.173	373.331
182.668	4.003	377.240
181.629	14.247	380.609
180.403	24.594	383.456
178.889	34.893	385.612
177.080	45.110	387.103
174.970	55.207	387.956
172.551	65.148	388.197
169.816	74.897	387.851
166.758	84.416	386.944
163.370	93.670	385.503
159.645	102.622	383.553
155.576	111.235	381.121
151.156	119.473	378.232
146.378	127.299	374.912
141.235	134.678	371.188
135.720	141.572	367.085
129.826	147.945	362.629
123.545	153.761	357.846
116.871	158.982	352.763
110.263	163.789	347.653
103.152	168.073	342.494
95.802	171.824	337.280
88.189	174.943	332.077
80.295	177.466	326.858
72.224	179.300	321.644
64.020	180.420	316.425
55.764	180.822	311.153
47.193	180.548	305.960
38.798	179.671	301.087
30.511	178.342	296.557
22.342	176.546	292.582
14.102	174.268	289.061
5.829	171.408	285.922
-2.426	167.742	283.119
-10.909	163.231	280.610
-19.355	157.997	278.368
-28.092	151.850	276.290
-36.705	144.965	274.578
-45.197	137.374	273.229
-53.598	129.148	272.172
-61.551	120.224	271.344
-69.045	110.844	270.887
-76.250	101.041	270.975
-82.761	90.986	271.503
-88.497	80.697	272.435
-93.975	70.107	273.735
-98.789	59.329	275.301
-103.192	48.404	277.262
-107.198	37.228	279.532
-110.970	25.865	282.065
-114.360	14.397	284.880
-117.489	2.843	288.046
-120.356	-8.783	291.410
-122.836	-20.367	294.928
-124.911	-31.960	298.546
-126.302	-43.345	302.266
-127.142	-54.713	306.034
-127.450	-66.027	309.838
-127.243	-77.251	313.661
-126.539	-88.348	317.489
-125.354	-99.281	321.308
-123.706	-110.015	325.103
-121.614	-120.512	328.860
-119.094	-130.735	332.565
-116.164	-140.649	336.201
-112.842	-150.217	339.756
-109.144	-159.401	343.214
-105.090	-168.166	346.561
-100.695	-176.475	349.783
-95.977	-184.290	352.864
-90.955	-191.577	355.791
-85.646	-198.298	358.548
-80.066	-204.416	361.121
-74.234	-209.894	363.496
-68.168	-214.698	365.659
-61.884	-218.789	367.593
-55.400	-222.130	369.286
-48.716	-225.082	370.696
-41.758	-227.576	371.856
-34.742	-229.536	372.739
-27.140	-231.206	373.343
-18.771	-232.591	373.666
-10.845	-233.166	373.723
-2.823	-233.123	373.470
5.273	-232.448	372.996
13.552	-231.090	372.233
21.669	-228.919	371.083
29.786	-225.979	369.546
37.903	-222.527	367.787
45.806	-218.330	365.601
53.597	-213.449	363.069
61.300	-208.141	360.289
68.833	-202.189	357.130
75.616	-197.583	354.381
83.528	-188.178	349.982
90.927	-178.766	345.961
97.076	-171.789	342.290
103.558	-162.228	337.980
109.571	-152.534	333.536
115.085	-142.860	329.044
120.436	-132.806	324.400
125.397	-122.536	319.702
130.029	-112.191	314.966
134.375	-101.679	310.205
138.296	-91.017	305.473
141.983	-80.246	300.772
145.404	-69.300	296.084
148.642	-58.054	291.550
151.372	-46.663	287.097
153.903	-35.173	282.910
155.973	-23.450	278.917
157.512	-11.634	275.257
158.615	0.404	272.088
158.961	12.390	269.204
158.707	24.122	266.849
157.872	35.579	265.007
156.477	46.739	263.664
154.542	57.581	262.803
152.087	68.082	262.411
149.133	78.220	262.471
145.698	87.974	262.969
141.805	97.322	263.890
137.471	106.242	265.219
132.719	114.711	266.940
127.567	122.709	269.038
122.037	130.213	271.499
116.147	137.201	274.307
109.919	143.652	277.448
103.372	149.543	280.905
96.527	154.853	284.665
89.403	159.560	288.711
82.021	163.642	293.029
74.401	167.077	297.604
66.562	169.843	302.421
58.526	171.918	307.464
50.312	173.281	312.719
41.941	173.909	318.170
33.432	173.781	323.802
24.805	172.875	329.600
16.081	171.169	335.550
7.111	168.841	341.485
-1.924	165.897	347.282
-10.904	162.341	352.773
-19.744	158.475	358.152
-28.589	154.075	363.275
-37.359	149.262	368.134
-45.729	144.200	372.725
-53.914	138.677	376.975
-61.987	132.874	380.897
-69.808	126.800	384.479
-77.542	120.404	387.613
-85.112	113.861	390.198
-92.758	107.200	391.982
-100.161	100.533	393.052
-107.473	93.514	393.407
-114.462	86.646	393.110
-121.232	79.503	392.030
-127.489	72.496	390.248
-133.280	65.309	387.776
-138.653	57.952	384.834
-143.667	50.276	381.473
-148.412	42.598	377.798
-152.977	34.661	373.684
-157.328	26.483	369.161
-161.402	18.039	364.289
-166.215	6.633	358.507
-171.292	-6.756	352.055
-176.161	-21.150	345.171
-180.348	-35.571	338.095
-183.380	-49.041	331.064
-184.783	-60.582	324.319
-184.085	-69.215	318.097
-180.812	-73.963	312.637
-174.490	-73.847	308.179
-164.646	-67.888	304.961
-162.089	-75.332	299.750
-159.037	-82.581	295.239
-154.942	-88.189	290.813
-150.765	-94.036	286.833
-145.910	-99.836	283.117
-140.285	-105.607	279.563
-134.156	-111.095	276.249
-127.509	-116.475	273.142
-119.961	-121.874	270.194
-111.473	-127.156	267.595
-102.789	-132.389	265.310
-93.824	-136.814	263.752
-84.443	-140.662	262.681
-74.507	-143.942	262.261
-64.268	-146.495	262.332
-53.857	-148.305	262.827
-43.105	-149.641	263.717
-31.832	-150.471	264.928
-20.317	-150.653	266.398
-8.717	-150.106	268.254
2.986	-148.931	270.498
14.432	-147.492	273.265
25.758	-145.333	276.384
37.371	-141.753	279.706
48.571	-138.588	283.475
59.773	-134.469	287.350
70.449	-130.690	291.425
81.119	-126.369	295.620
91.440	-122.328	299.852
101.829	-117.967	304.027
112.239	-113.379	308.246
122.419	-108.474	312.451
132.387	-103.346	316.724
142.143	-97.792	320.984
151.338	-91.730	325.210
160.111	-85.300	329.376
168.376	-78.293	333.476
175.983	-70.918	337.479
183.049	-62.894	341.325
189.550	-54.762	345.085
195.508	-46.486	348.760
200.869	-38.176	351.991
205.777	-29.902	355.122
210.254	-21.608	357.925
213.971	-13.305	360.444
217.071	-5.065	362.690
219.563	3.098	364.668
221.455	11.166	366.378
222.756	19.122	367.826
223.477	26.949	369.013
223.625	34.631	369.942
223.210	42.150	370.618
222.241	49.490	371.042
220.726	56.634	371.218
218.676	63.564	371.149
216.098	70.265	370.837
213.002	76.720	370.287
209.397	82.911	369.500
205.292	88.821	368.481
200.697	94.435	367.231
195.619	99.734	365.755
190.068	104.702	364.054
184.053	109.323	362.132
177.584	113.579	359.993
170.668	117.454	357.638
163.316	120.930	355.072
155.536	123.992	352.297
147.337	126.621	349.316
138.729	128.802	346.132
129.719	130.517	342.749
120.319	131.749	339.169
110.535	132.482	335.395
100.378	132.699	331.431
90.479	132.373	327.291
80.255	131.544	323.022
69.588	130.277	318.889
58.786	128.616	314.703
47.877	126.583	310.532
36.780	124.225	306.464
25.579	121.374	302.519
14.191	118.226	298.620
2.796	114.692	294.931
-8.540	110.680	291.340
-20.072	106.408	287.967
-31.370	101.719	284.798
-42.594	96.723	282.032
-53.467	91.410	279.639
-64.333	85.717	277.549
-74.965	79.746	275.603
-84.954	73.396	274.036
-94.531	66.799	272.551
-103.427	59.722	271.497
-111.951	52.453	270.597
-119.801	44.862	270.041
-126.835	37.072	269.604
-133.163	28.857	269.557
-138.880	20.443	269.995
-144.099	11.899	270.804
-149.001	3.474	272.158
-153.374	-4.814	274.009
-157.346	-13.109	276.418
-160.723	-21.374	279.235
-163.451	-29.456	282.425
-165.558	-37.276	286.136
-167.115	-44.992	290.186
-167.674	-52.349	294.386
-168.180	-61.073	298.818
-167.805	-69.322	303.415
-166.485	-77.378	308.138
-164.092	-84.515	312.728
-161.829	-92.150	317.756
-157.778	-98.071	322.505
-153.640	-104.267	327.300
-148.887	-110.577	332.127
-143.619	-116.864	336.932
-137.925	-122.973	341.551
-131.557	-128.622	346.079
-124.761	-133.877	350.334
-117.389	-138.826	354.539
-109.767	-143.366	358.382
-101.816	-147.520	362.048
-93.568	-151.222	365.329
-85.273	-154.366	368.628
-76.610	-157.159	371.438
-68.048	-159.570	373.877
-59.328	-161.748	375.871
-50.444	-163.922	377.409
-41.752	-165.951	378.424
-33.039	-167.978	378.779
-23.785	-168.867	378.222
-14.459	-169.816	376.933
-4.837	-170.520	374.911
4.848	-171.298	372.385
14.814	-171.748	369.300
25.065	-171.954	365.695
35.297	-171.769	361.832
45.533	-170.894	357.679
56.139	-168.063	352.861
65.685	-166.413	348.224
74.901	-164.097	343.510
83.910	-160.620	338.377
92.622	-156.847	333.030
101.082	-152.867	327.498
109.368	-148.332	321.775
117.295	-143.710	315.998
124.980	-138.924	310.325
132.360	-133.627	304.687
139.262	-127.779	299.147
145.791	-121.478	293.717
151.721	-114.700	288.500
157.040	-107.520	283.574
161.717	-99.927	279.027
165.803	-92.064	274.808
169.340	-84.176	270.821
172.490	-76.533	267.027
175.219	-68.949	263.474
177.567	-61.091	260.319
179.283	-53.095	257.647
180.424	-44.842	255.545
180.801	-36.138	254.015
180.500	-26.993	253.090
179.484	-17.616	252.840
177.842	-7.969	253.188
175.419	2.004	254.286
172.374	11.990	256.080
168.763	22.291	258.564
164.691	31.665	261.223
160.037	40.636	264.131
154.812	49.201	267.302
149.026	57.353	270.746
142.690	65.088	274.474
135.816	72.399	278.497
128.679	79.543	282.932
121.043	86.358	287.755
113.184	92.869	292.766
105.141	99.081	297.931
96.786	105.044	303.325
88.284	110.784	308.944
79.686	116.065	314.631
70.776	121.030	320.290
61.692	125.559	325.826
52.500	129.657	331.338
43.058	133.350	336.808
33.579	136.686	342.128
23.990	139.607	347.412
14.287	142.088	352.526
4.642	144.106	357.558
-5.136	145.699	362.315
-14.746	146.794	366.673
-24.348	147.430	370.687
-33.815	147.582	374.305
-43.272	147.283	377.499
-52.808	146.564	380.189
-62.387	145.432	382.335
-71.507	143.856	384.041
-80.772	141.893	385.342
-89.541	139.625	386.101
-98.207	137.151	386.397
-106.443	134.197	386.302
-114.443	130.929	385.919
-122.014	127.339	385.265
-129.160	123.516	384.295
-135.872	119.349	382.966
-141.977	114.910	381.377
-147.508	110.238	379.438
-152.588	105.261	377.116
-156.982	100.044	374.518
-160.995	94.572	371.746
-164.539	88.764	368.746
-167.381	82.699	365.596
-169.816	76.370	362.173
-171.706	69.731	358.648
-173.163	62.866	355.050
-174.156	55.757	351.250
-174.712	48.382	347.228
-174.618	40.801	343.051
-173.742	33.030	338.740
-172.115	25.147	334.264
-169.899	16.933	329.746
-167.029	8.556	325.158
-163.507	0.065	320.556
-159.377	-8.500	316.020
-154.558	-17.137	311.576
-149.402	-25.757	307.202
-143.637	-34.298	303.007
-137.382	-42.678	299.138
-130.421	-50.635	295.299
-123.031	-58.885	291.832
-115.091	-66.238	288.378
-106.899	-74.068	285.236
-98.224	-81.666	282.453
-89.465	-89.416	279.857
-79.814	-96.059	277.377
-69.899	-102.411	275.281
-59.791	-108.780	273.512
-49.648	-115.278	272.187
-39.372	-121.593	271.024
-28.418	-126.538	270.177
-17.443	-131.287	269.556
-6.247	-135.863	269.203
5.027	-140.257	269.257
16.229	-144.316	269.593
27.421	-148.117	270.353
38.486	-151.488	271.371
50.028	-152.800	272.806
61.375	-153.392	274.387
72.520	-153.795	276.610
83.215	-153.778	278.896
93.956	-152.642	281.572
103.860	-152.430	284.515
113.075	-151.373	287.539
122.623	-149.278	290.861
131.695	-147.051	294.394
140.501	-144.244	298.108
148.708	-141.629	302.150
156.604	-138.321	306.352
164.155	-134.516	310.647
171.194	-130.127	314.977
177.743	-125.238	319.369
183.701	-119.639	323.760
189.150	-114.062	328.148
194.072	-108.219	332.530
198.419	-102.095	336.803
202.162	-95.682	340.844
205.314	-89.003	344.646
207.885	-82.081	348.205
209.888	-74.938	351.515
211.334	-67.599	354.572
212.234	-60.085	357.369
212.601	-52.419	359.903
212.445	-44.626	362.166
211.779	-36.727	364.155
210.613	-28.745	365.864
208.960	-20.704	367.288
206.830	-12.626	368.421
