NO_OF_FRAMES	6000
NO_OF_DATA_TYPES	3
FREQUENCY	100
TIME_STAMP	2020-09-26, 18:04:55
DATA_INCLUDED	Position
DATA_TYPES	Mass_pos_X	Mass_pos_Y	Mass_pos_Z

Mass_pos_X	Mass_pos_Y	Mass_pos_Z	
-4.141	-269.293	229.943
-3.196	-264.201	235.744
-2.162	-258.390	241.619
-1.120	-252.048	247.553
-0.187	-244.966	253.609
0.848	-237.390	259.576
1.728	-229.216	265.589
2.405	-220.495	271.621
3.283	-211.427	277.480
3.824	-201.831	283.225
4.591	-191.818	288.728
5.264	-181.425	294.075
6.048	-170.594	299.171
6.748	-159.351	303.975
7.511	-147.887	308.389
8.306	-135.627	312.766
9.120	-123.140	316.663
10.087	-110.139	320.145
10.757	-97.618	323.386
11.553	-84.317	326.260
12.412	-70.835	328.735
13.144	-57.659	330.593
14.011	-44.153	332.166
14.853	-30.536	333.311
15.627	-16.791	333.906
16.407	-3.032	334.046
17.184	10.738	333.797
18.089	24.393	333.067
19.078	37.914	331.808
20.155	51.246	330.140
21.006	64.443	327.981
21.957	77.393	325.274
22.828	90.226	322.109
23.552	102.678	318.622
24.286	114.776	314.633
25.031	126.513	310.227
25.604	137.832	305.368
25.921	148.846	300.107
25.901	159.243	294.514
26.054	169.277	288.609
26.228	178.852	282.391
26.429	187.922	276.044
26.504	196.483	269.685
26.532	204.580	263.209
26.442	212.085	256.887
26.474	219.209	250.706
26.347	225.675	244.564
26.194	231.567	238.606
26.158	236.964	232.927
26.128	241.725	227.438
26.076	245.757	222.068
25.979	249.027	216.887
25.791	251.495	211.847
25.510	253.157	206.973
25.131	254.007	202.291
24.654	254.040	197.824
24.073	253.249	193.599
23.387	251.631	189.640
22.593	249.180	185.972
21.686	245.890	182.620
20.665	241.756	179.608
19.663	236.773	176.820
18.600	231.062	174.468
17.714	224.764	172.579
16.813	217.799	171.145
15.992	210.177	170.164
15.099	202.090	169.751
14.098	193.358	169.755
13.215	184.248	170.170
12.255	174.529	171.003
11.342	164.387	172.305
10.385	153.658	173.818
9.499	142.355	175.625
8.637	130.543	177.542
7.776	118.110	179.675
6.753	105.229	182.035
5.981	91.953	184.637
4.909	78.314	187.487
3.836	64.539	190.536
2.823	50.562	193.852
1.715	36.167	197.306
0.488	21.406	200.907
-0.621	6.760	204.753
-1.682	-7.789	208.777
-2.606	-22.326	212.899
-3.404	-36.829	217.217
-4.179	-51.181	221.584
-4.748	-64.970	225.863
-5.477	-79.372	230.278
-5.949	-93.285	234.637
-6.578	-107.201	238.874
-7.670	-122.137	243.291
-7.632	-133.699	247.608
-8.062	-146.623	251.836
-8.470	-159.356	255.984
-8.853	-171.841	260.084
-9.173	-183.969	264.089
-9.483	-195.907	268.037
-9.599	-207.389	271.883
-9.837	-218.516	275.695
-9.889	-229.147	279.366
-9.947	-239.398	283.024
-9.916	-249.012	286.530
-9.991	-257.987	289.896
-10.081	-266.202	293.075
-10.134	-273.691	296.114
-10.282	-280.319	298.957
-10.317	-286.119	301.564
-10.669	-290.909	303.894
-10.576	-295.209	306.116
-10.116	-298.813	308.099
-9.519	-301.522	309.797
-9.315	-303.181	311.135
-8.388	-304.448	312.384
-7.858	-305.141	313.517
-7.237	-305.350	314.487
-6.845	-305.033	315.334
-6.658	-304.031	315.965
-6.253	-302.567	316.504
-5.771	-300.240	316.834
-5.216	-297.113	316.889
-4.664	-293.259	316.701
-3.941	-288.962	316.406
-3.225	-283.822	315.761
-2.390	-278.143	314.896
-1.466	-271.794	313.733
-0.729	-264.755	312.282
0.150	-256.922	310.513
0.765	-248.373	308.422
1.090	-238.920	305.930
1.736	-229.053	303.296
2.560	-218.637	300.441
3.339	-207.695	297.324
4.263	-196.335	294.010
5.224	-184.582	290.509
6.168	-172.386	286.732
7.143	-159.956	282.788
8.150	-147.362	278.640
8.847	-134.533	274.227
9.793	-121.137	269.760
10.863	-107.295	264.972
11.575	-93.969	260.250
12.408	-80.390	255.320
13.176	-66.828	250.323
13.776	-53.062	245.218
14.335	-39.311	240.007
14.898	-25.553	234.749
15.482	-11.844	229.461
16.132	1.801	224.140
16.787	15.494	218.811
17.492	29.067	213.517
18.223	42.607	208.308
18.923	56.012	203.214
19.633	69.378	198.271
20.244	82.390	193.557
20.928	95.566	189.118
21.488	107.929	184.832
22.040	119.835	180.779
22.502	131.271	177.001
22.952	142.204	173.446
23.373	152.726	170.093
23.811	162.721	167.096
24.157	172.067	164.367
24.375	180.902	162.043
24.448	189.028	160.018
24.366	196.564	158.476
24.158	203.453	157.292
23.849	209.667	156.734
23.470	215.231	156.538
23.131	220.131	156.772
22.807	224.408	157.488
22.606	228.037	158.671
22.424	231.007	160.304
22.260	233.268	162.443
22.015	234.837	165.021
21.736	235.684	167.999
21.330	235.744	171.403
20.802	234.992	175.314
20.177	233.342	179.441
19.476	230.935	183.872
18.573	227.751	188.529
17.726	223.735	193.484
16.805	219.007	198.656
15.757	213.558	204.062
14.863	207.551	209.607
13.733	200.806	215.480
12.650	193.560	221.504
11.373	185.809	227.784
10.015	177.476	234.184
8.787	168.727	240.712
7.540	159.438	247.272
6.381	149.795	253.868
5.322	139.682	260.346
4.244	129.292	266.726
3.311	118.489	272.930
2.468	107.430	278.971
1.599	96.061	284.759
0.653	84.344	290.275
-0.056	72.470	295.558
-1.048	60.240	300.402
-1.977	47.869	304.920
-3.054	35.365	309.221
-4.381	22.629	312.947
-5.725	9.695	316.457
-6.774	-3.283	319.313
-8.096	-16.409	321.889
-9.218	-29.613	323.981
-10.477	-42.633	325.518
-11.684	-55.627	326.718
-12.868	-68.941	327.439
-13.975	-81.852	327.765
-14.998	-94.660	327.629
-15.860	-106.706	327.025
-16.947	-119.274	326.236
-17.737	-130.939	324.685
-18.952	-143.453	323.302
-19.508	-154.669	321.205
-20.258	-165.538	318.719
-20.836	-176.229	315.737
-21.268	-186.573	312.532
-21.637	-196.463	308.850
-21.913	-205.996	304.915
-21.954	-215.043	300.727
-22.098	-223.425	296.084
-22.061	-231.431	291.497
-22.029	-238.774	286.617
-22.146	-245.474	281.741
-22.177	-251.801	276.738
-22.297	-257.536	271.786
-22.596	-262.654	266.691
-22.742	-267.325	261.558
-22.873	-271.474	256.517
-23.029	-274.879	251.486
-23.020	-277.654	246.489
-22.801	-279.718	241.319
-22.425	-281.007	236.311
-21.827	-281.494	231.350
-21.187	-281.085	226.460
-20.574	-279.746	221.812
-19.787	-277.580	217.254
-18.946	-274.569	212.912
-17.970	-270.824	208.671
-17.080	-266.333	204.693
-16.035	-261.156	200.965
-14.924	-255.288	197.435
-13.592	-248.746	194.222
-12.530	-241.472	191.239
-11.531	-233.599	188.683
-10.315	-225.122	186.363
-9.226	-216.306	184.399
-8.341	-206.779	182.787
-7.404	-196.896	181.472
-6.603	-186.388	180.454
-5.829	-175.652	179.752
-4.803	-164.391	179.186
-3.862	-152.754	178.951
-2.552	-140.563	178.832
-1.099	-128.043	179.020
0.333	-115.074	179.504
1.677	-102.325	180.296
3.616	-87.815	181.371
5.810	-72.306	182.796
7.032	-58.935	184.550
8.460	-44.822	186.510
9.791	-30.566	188.760
11.173	-16.211	191.345
12.486	-1.836	194.050
13.854	12.381	196.774
15.109	26.446	199.665
16.256	40.304	202.703
17.373	53.965	205.830
18.487	67.421	209.113
19.419	80.517	212.448
20.327	93.443	216.035
21.285	106.078	219.556
21.977	118.352	223.397
22.676	130.408	227.273
23.551	142.071	231.219
24.365	153.397	235.113
25.498	164.374	239.253
26.381	174.983	243.502
27.579	185.262	247.867
28.615	194.954	252.228
29.880	204.144	256.762
30.953	212.669	261.204
31.867	220.634	265.790
32.589	227.768	270.185
33.244	234.180	274.516
33.723	239.891	278.675
33.798	244.875	282.734
33.798	249.051	286.599
33.581	252.567	290.286
33.429	255.385	293.870
33.178	257.487	297.280
32.814	258.925	300.609
32.392	259.683	303.914
31.989	259.721	307.072
31.463	259.062	310.183
30.802	257.767	313.207
30.245	255.825	316.146
29.697	253.263	318.903
29.176	250.079	321.503
28.748	246.416	323.976
28.269	242.161	326.257
27.730	237.300	328.284
27.149	231.845	330.021
26.489	225.787	331.441
25.438	219.180	332.635
24.435	211.847	333.402
23.301	203.940	333.766
21.944	195.372	333.767
20.108	186.384	333.418
17.894	176.742	332.609
15.958	166.776	331.408
14.094	156.325	329.777
12.243	145.683	327.747
10.399	134.532	325.245
8.640	123.137	322.367
7.107	111.562	319.264
5.650	99.685	315.750
4.230	87.631	311.913
2.779	75.401	307.821
1.467	62.963	303.401
0.132	50.424	298.741
-1.189	37.834	293.806
-2.182	25.085	288.521
-3.514	12.490	283.204
-4.661	-0.266	277.461
-5.710	-13.006	271.644
-6.640	-25.742	265.546
-7.833	-38.356	259.415
-8.634	-51.024	253.063
-9.513	-63.572	246.575
-10.490	-75.648	240.120
-11.282	-87.086	233.567
-12.821	-100.702	227.114
-14.464	-113.310	220.753
-15.226	-124.205	214.451
-16.520	-135.582	208.245
-17.646	-146.657	202.227
-18.544	-157.319	196.346
-19.328	-167.714	190.629
-19.883	-177.536	185.069
-20.483	-186.868	179.825
-20.859	-195.570	174.899
-21.106	-203.797	170.254
-21.191	-211.451	165.950
-21.359	-218.291	162.057
-21.543	-224.465	158.652
-21.581	-230.084	155.608
-21.741	-234.926	153.027
-21.631	-239.162	150.870
-21.679	-242.762	149.168
-21.429	-245.794	147.877
-21.111	-248.243	147.092
-20.945	-250.031	146.788
-20.767	-251.005	147.037
-20.453	-251.443	147.677
-20.162	-251.009	148.887
-20.053	-249.749	150.650
-19.778	-247.878	152.841
-19.236	-245.267	155.378
-18.642	-241.854	158.375
-17.847	-237.759	161.811
-16.592	-233.153	165.403
-15.356	-227.728	169.441
-14.218	-221.613	173.929
-12.772	-214.965	178.639
-11.454	-207.630	183.751
-10.348	-199.664	189.227
-9.265	-191.124	195.019
-8.187	-182.169	200.994
-7.171	-172.893	207.232
-6.183	-162.975	213.671
-5.073	-152.964	220.096
-3.911	-142.553	226.586
-2.846	-131.856	233.217
-2.363	-122.788	240.034
-0.455	-110.009	246.300
0.977	-98.026	252.732
2.213	-86.157	259.122
3.336	-74.250	265.461
4.501	-62.147	271.614
5.763	-49.973	277.523
7.079	-37.659	283.322
8.516	-25.118	288.903
9.837	-12.421	293.970
11.443	0.226	298.984
13.061	12.927	303.794
14.627	25.571	308.192
16.020	38.234	312.153
17.603	50.751	316.016
18.958	63.033	319.287
20.061	75.220	322.145
21.263	87.160	324.730
22.441	98.742	326.819
23.461	110.134	328.556
24.381	121.207	329.793
25.123	131.919	330.626
26.125	142.314	331.071
26.866	152.265	330.978
27.718	161.919	330.474
28.299	171.130	329.440
29.141	180.030	328.106
29.780	188.448	326.321
30.230	196.386	324.200
30.777	203.830	321.773
31.047	210.662	319.049
31.360	217.098	316.136
31.700	222.908	313.057
31.912	228.209	309.805
32.039	232.985	306.389
32.374	237.258	302.851
32.567	240.895	299.131
32.676	243.934	295.305
32.722	246.326	291.373
32.714	248.017	287.335
32.563	249.057	283.194
32.165	249.288	278.951
31.568	248.718	274.591
30.718	247.430	270.250
29.767	245.409	265.871
28.759	242.762	261.492
27.574	239.149	257.079
26.399	234.926	252.630
25.268	230.028	248.159
24.250	224.528	243.686
23.253	218.338	239.225
22.198	211.503	234.874
21.171	204.146	230.636
20.023	196.051	226.505
18.950	187.534	222.600
17.710	178.419	218.930
16.354	168.875	215.401
15.125	158.798	212.128
13.769	148.399	209.085
12.340	137.515	206.188
10.865	126.354	203.422
9.458	114.672	200.785
8.020	102.528	198.215
6.571	90.155	195.773
4.856	77.295	193.500
3.237	64.112	191.520
1.440	50.794	189.646
-0.210	37.411	188.134
-1.896	23.769	186.856
-3.699	9.387	185.657
-5.323	-4.542	184.885
-6.669	-18.663	184.097
-7.909	-32.660	183.552
-8.929	-46.116	183.194
-10.174	-60.300	183.082
-11.230	-74.240	183.196
-12.289	-87.773	183.532
-13.236	-100.946	184.205
-14.218	-113.625	185.100
-15.448	-126.164	186.383
-16.580	-138.222	187.832
-17.693	-150.017	189.559
-18.746	-161.404	191.473
-19.736	-172.595	193.566
-20.799	-183.292	195.941
-21.555	-193.840	198.349
-22.408	-203.919	201.115
-22.946	-213.609	203.967
-23.525	-222.666	207.068
-24.082	-231.152	210.409
-24.474	-238.984	213.949
-24.884	-246.132	217.726
-25.094	-252.645	221.542
-25.052	-258.396	225.492
-25.019	-263.467	229.490
-24.860	-267.802	233.619
-24.420	-271.545	237.723
-24.115	-274.547	241.930
-23.589	-276.851	246.207
-22.928	-278.424	250.460
-22.473	-279.152	254.798
-22.081	-279.127	259.226
-21.547	-278.412	263.665
-21.152	-276.915	268.080
-20.722	-274.814	272.527
-20.242	-272.131	276.890
-19.796	-268.808	281.155
-19.042	-265.037	285.333
-18.124	-260.741	289.360
-17.128	-256.006	293.262
-15.942	-250.587	296.862
-14.694	-244.635	300.326
-13.441	-238.097	303.575
-12.026	-230.978	306.572
-10.981	-223.037	309.238
-9.696	-214.688	311.678
-8.372	-205.763	313.752
-7.115	-196.401	315.539
-5.653	-186.572	316.948
-4.343	-176.399	318.045
-3.014	-165.779	318.687
-1.900	-155.807	319.226
-0.088	-143.674	318.924
1.816	-131.153	318.319
2.877	-120.255	317.804
4.367	-108.116	316.691
5.523	-96.274	315.286
6.789	-84.017	313.478
8.057	-71.685	311.284
9.292	-59.321	308.729
10.535	-46.871	305.762
11.776	-34.440	302.432
13.176	-22.013	298.696
14.482	-9.641	294.609
15.883	2.621	290.212
17.518	14.800	285.439
18.988	26.920	280.509
20.557	39.066	275.182
21.958	51.099	269.719
23.164	62.706	263.987
24.384	74.368	258.133
25.574	85.907	252.191
26.613	96.968	246.154
27.583	107.458	239.998
28.382	117.808	233.853
29.242	127.942	227.765
30.061	137.695	221.690
30.720	146.967	215.718
31.378	155.690	209.808
31.836	163.958	204.067
32.295	171.622	198.466
32.656	178.828	193.086
33.081	185.451	187.927
33.142	191.403	183.005
33.843	196.676	178.481
34.308	201.512	174.237
34.398	205.665	170.352
34.490	209.152	166.825
34.408	212.073	163.715
34.597	214.303	161.011
34.538	215.822	158.773
34.520	216.644	156.928
34.357	216.732	155.551
34.042	216.178	154.629
33.561	214.952	154.210
33.048	213.034	154.206
32.343	210.380	154.664
31.672	207.082	155.504
30.747	203.188	156.844
29.838	198.511	158.528
28.850	193.213	160.626
27.815	187.247	163.154
26.749	180.567	165.992
25.714	173.370	169.156
24.454	165.703	172.823
23.239	157.463	176.738
22.012	148.855	181.028
20.680	139.707	185.584
19.442	130.199	190.425
18.167	120.245	195.434
16.861	110.001	200.745
15.695	99.356	206.112
14.340	88.471	211.653
13.007	77.178	217.292
11.663	65.751	223.010
10.323	54.081	228.733
8.909	42.148	234.438
7.375	29.949	240.142
5.771	17.600	245.815
4.197	5.212	251.352
2.613	-7.244	256.766
1.031	-19.980	262.027
-0.481	-32.525	267.106
-1.997	-45.023	272.012
-3.444	-57.619	276.720
-4.788	-70.048	281.135
-6.107	-82.269	285.309
-7.251	-94.351	289.277
-8.468	-106.532	292.943
-9.598	-118.328	296.360
-10.807	-130.120	299.396
-12.094	-142.013	302.278
-12.886	-152.327	304.798
-13.807	-162.856	306.992
-14.788	-173.223	308.924
-15.665	-183.081	310.539
-16.637	-192.634	311.840
-17.368	-201.747	312.881
-18.098	-210.509	313.663
-18.798	-218.830	314.130
-19.395	-226.657	314.357
-20.014	-233.971	314.259
-20.675	-240.729	313.891
-21.353	-246.898	313.202
-21.851	-252.630	312.320
-22.318	-257.705	311.189
-22.900	-262.117	309.720
-23.331	-265.900	308.098
-23.400	-269.208	306.257
-23.449	-271.831	304.225
-23.345	-273.855	301.940
-23.184	-275.182	299.534
-22.712	-276.034	296.878
-22.456	-275.947	294.056
-22.119	-275.247	291.097
-21.688	-273.874	288.011
-21.362	-271.751	284.744
-20.824	-268.933	281.375
-20.212	-265.475	277.958
-19.579	-261.353	274.419
-18.954	-256.599	270.861
-18.241	-251.176	267.235
-17.384	-245.060	263.559
-16.528	-238.563	259.884
-15.630	-231.327	256.119
-14.678	-223.560	252.329
-13.749	-215.325	248.586
-12.653	-206.550	244.802
-11.598	-197.249	240.999
-10.330	-187.478	237.295
-9.163	-177.326	233.542
-7.891	-166.659	229.849
-6.433	-155.774	226.288
-5.003	-144.401	222.674
-3.613	-132.731	219.196
-1.975	-120.737	215.795
-0.977	-109.824	212.440
1.203	-95.924	209.065
3.201	-82.303	206.222
4.506	-69.848	203.270
6.249	-56.410	200.482
7.694	-43.076	197.828
9.118	-29.928	195.370
10.562	-16.814	193.093
11.882	-3.696	190.986
13.342	9.469	189.151
14.800	22.562	187.408
16.264	35.555	185.902
17.637	48.473	184.660
18.967	61.142	183.598
20.413	73.649	182.735
21.766	85.919	182.204
23.098	97.823	181.880
24.466	109.522	181.830
25.712	120.766	182.054
26.964	131.667	182.489
28.181	142.151	183.288
29.345	152.114	184.265
30.467	161.682	185.658
31.476	170.699	187.247
32.583	179.302	189.216
33.566	187.357	191.532
34.406	194.802	193.975
35.020	201.736	196.893
35.606	207.916	199.898
36.096	213.475	203.165
36.328	218.392	206.783
36.862	222.553	210.388
36.945	226.016	214.254
37.096	228.798	218.362
37.193	230.945	222.598
37.391	232.446	227.081
37.265	233.359	231.790
37.142	233.543	236.612
36.978	233.126	241.635
36.928	232.015	246.716
36.460	230.268	251.911
36.109	227.835	257.074
35.573	224.758	262.312
35.024	221.014	267.588
34.093	216.663	272.683
33.253	211.615	277.791
32.294	206.098	282.898
31.128	199.997	287.826
29.917	193.329	292.613
29.083	186.148	297.220
27.875	178.499	301.602
26.461	170.384	305.832
25.047	161.900	309.891
23.554	152.960	313.542
22.219	143.631	316.770
20.560	133.910	319.603
18.964	123.917	322.139
17.489	113.638	324.364
15.883	103.123	326.174
14.292	92.438	327.541
12.678	81.435	328.497
11.195	70.276	328.977
9.608	59.007	329.042
8.036	47.591	328.657
6.505	36.033	327.809
4.935	24.371	326.510
3.367	12.652	324.689
1.774	0.769	322.394
0.206	-11.123	319.769
-1.355	-23.064	316.613
-3.038	-34.999	313.130
-4.623	-46.845	309.131
-6.158	-58.749	304.914
-7.702	-70.127	300.306
-8.943	-81.597	295.481
-10.423	-92.981	290.345
-11.968	-103.918	285.054
-13.607	-115.475	279.432
-14.780	-126.189	273.602
-15.831	-136.228	267.717
-16.904	-146.112	261.711
-17.838	-155.739	255.521
-18.709	-164.911	249.212
-19.501	-173.786	242.969
-20.271	-182.102	236.612
-20.873	-190.036	230.322
-21.495	-197.444	224.153
-22.103	-204.266	217.920
-22.625	-210.622	211.958
-23.120	-216.332	206.228
-23.499	-221.509	200.600
-23.830	-226.184	195.257
-24.203	-230.277	190.172
-24.452	-233.841	185.269
-24.620	-236.893	180.644
-24.661	-239.296	176.372
-24.712	-240.962	172.424
-24.603	-241.999	168.740
-24.446	-242.245	165.445
-24.254	-241.791	162.644
-23.767	-240.534	160.255
-23.383	-238.466	158.250
-22.778	-235.802	156.654
-21.979	-232.325	155.503
-21.089	-228.344	154.789
-20.248	-223.622	154.469
-19.141	-218.332	154.612
-18.094	-212.590	155.105
-16.967	-206.139	156.066
-15.810	-199.255	157.464
-14.665	-191.784	159.209
-13.422	-183.769	161.365
-12.140	-175.363	163.889
-10.874	-166.365	166.792
-9.541	-157.087	170.056
-8.083	-147.311	173.616
-6.567	-137.365	177.465
-4.987	-126.870	181.577
-3.453	-116.120	185.950
-2.211	-105.844	190.425
-0.268	-93.535	195.279
1.520	-81.322	200.355
3.397	-69.474	205.599
5.064	-56.871	211.007
6.681	-44.658	216.504
8.400	-32.188	222.055
10.130	-19.742	227.770
11.923	-7.139	233.436
13.629	5.406	239.163
15.490	17.887	244.846
17.031	30.342	250.348
18.791	42.665	255.837
20.352	54.795	261.137
21.968	66.792	266.415
23.438	78.517	271.460
25.128	90.047	276.361
26.459	101.331	281.023
28.008	112.316	285.618
29.311	123.017	289.981
30.624	133.392	294.097
31.953	143.537	298.035
33.353	153.122	301.594
34.663	162.529	305.011
35.874	171.389	308.126
36.989	179.700	310.945
38.007	187.462	313.473
38.932	194.675	315.713
39.762	201.339	317.669
40.500	207.453	319.347
41.146	213.016	320.751
41.702	218.029	321.885
42.169	222.492	322.753
42.547	226.403	323.360
42.837	229.763	323.711
43.041	232.571	323.809
43.160	234.826	323.660
43.195	236.530	323.267
43.147	237.680	322.635
43.016	238.278	321.768
42.804	238.322	320.672
42.512	237.812	319.349
42.141	236.748	317.806
41.692	235.130	316.045
41.166	232.957	314.072
40.565	230.229	311.890
39.888	226.945	309.505
39.138	223.106	306.921
38.315	218.711	304.141
37.420	213.759	301.172
36.454	208.251	298.016
35.419	202.185	294.679
34.315	195.562	291.164
33.144	188.381	287.476
31.906	180.643	283.620
30.603	172.345	279.600
29.235	163.490	275.421
27.804	154.075	271.086
26.310	144.100	266.601
24.686	133.519	261.800
22.934	122.710	257.012
21.259	111.501	252.063
19.545	99.966	247.168
17.793	88.279	242.290
15.986	76.343	237.398
14.258	64.298	232.590
12.729	52.365	227.916
10.950	39.905	223.197
9.138	27.179	218.480
7.430	14.607	213.926
5.889	1.924	209.384
4.349	-10.694	204.977
2.784	-23.332	200.692
1.200	-35.924	196.440
-0.239	-48.203	192.382
-1.881	-60.899	188.592
-3.376	-73.192	184.889
-5.012	-85.796	181.378
-6.809	-98.402	178.301
-8.074	-109.538	175.527
-9.479	-121.107	172.936
-10.926	-132.429	170.620
-12.273	-143.405	168.570
-13.496	-154.136	166.871
-14.725	-164.365	165.467
-15.938	-174.137	164.422
-16.930	-183.381	163.786
-17.871	-192.095	163.456
-18.784	-200.161	163.549
-19.563	-207.676	163.995
-20.168	-214.591	164.823
-20.722	-220.828	166.004
-21.208	-226.515	167.521
-21.621	-231.639	169.389
-21.952	-236.176	171.608
-22.215	-240.212	174.154
-22.472	-243.643	177.018
-22.636	-246.447	180.235
-22.843	-248.535	183.806
-22.885	-249.959	187.667
-22.963	-250.614	191.848
-23.093	-250.519	196.282
-22.819	-249.879	200.949
-22.657	-248.430	205.812
-22.172	-246.478	210.893
