NO_OF_FRAMES	6000
NO_OF_DATA_TYPES	3
FREQUENCY	100
TIME_STAMP	2020-09-27, 12:43:57
DATA_INCLUDED	Position
DATA_TYPES	Mass_pos_X	Mass_pos_Y	Mass_pos_Z

Mass_pos_X	Mass_pos_Y	Mass_pos_Z	
-193.857	-147.435	145.348
-191.512	-150.656	144.907
-189.031	-153.977	144.316
-186.426	-157.237	143.553
-183.705	-160.556	142.538
-180.864	-163.896	141.347
-177.917	-167.276	140.133
-174.979	-170.604	138.603
-171.838	-173.964	137.029
-168.579	-177.339	135.351
-165.274	-180.558	133.313
-161.577	-183.649	130.988
-157.500	-186.503	128.328
-153.030	-189.012	125.415
-148.158	-191.066	122.331
-142.872	-192.556	119.159
-137.164	-193.374	115.981
-131.200	-193.443	113.285
-124.006	-193.293	110.000
-115.622	-192.967	106.852
-106.443	-192.191	103.314
-101.852	-188.508	102.679
-94.893	-185.106	102.584
-78.608	-185.173	100.670
-68.004	-181.499	99.404
-60.314	-175.784	99.552
-52.545	-169.678	100.368
-44.342	-163.175	101.778
-35.199	-156.849	103.993
-26.176	-149.802	106.818
-17.197	-142.375	110.235
-8.449	-134.351	114.231
0.254	-125.828	118.776
8.733	-116.853	123.940
17.252	-107.364	129.648
25.610	-97.642	135.830
33.770	-87.890	142.385
42.151	-76.922	149.783
50.018	-66.632	157.353
58.021	-55.938	165.396
65.592	-45.470	173.694
73.064	-34.814	182.255
80.344	-24.220	191.061
87.418	-13.672	200.058
94.223	-3.154	209.217
100.906	7.935	218.510
107.236	18.371	227.836
113.138	28.827	237.108
118.787	39.093	246.363
124.618	48.916	255.579
130.172	58.675	264.748
135.728	68.023	273.738
140.314	77.429	282.616
144.524	86.534	291.182
148.364	95.332	299.430
151.836	103.818	307.354
154.943	111.987	314.948
157.689	119.831	322.204
160.076	127.347	329.117
162.108	134.527	335.679
163.788	141.366	341.886
165.120	147.859	347.729
166.106	154.000	353.204
166.749	159.783	358.302
167.054	165.202	363.019
167.022	170.252	367.347
166.658	174.928	371.280
165.964	179.222	374.812
164.943	183.130	377.936
163.600	186.646	380.646
161.936	189.765	382.935
159.955	192.479	384.798
157.661	194.785	386.227
155.057	196.676	387.216
152.145	198.146	387.758
148.929	199.190	387.848
145.412	199.803	387.479
141.597	199.977	386.645
137.488	199.708	385.338
133.087	198.990	383.553
128.398	197.818	381.284
123.425	196.185	378.523
118.169	194.085	375.264
112.635	191.514	371.501
106.826	188.466	367.228
100.744	184.934	362.438
94.393	180.913	357.125
87.777	176.397	351.282
80.897	171.382	344.903
73.816	165.908	338.076
66.731	160.131	330.831
59.378	153.894	323.139
52.194	147.393	315.030
44.956	140.546	306.701
37.258	133.150	298.046
30.125	125.348	289.192
22.489	117.311	280.207
14.573	109.224	271.078
6.613	100.904	261.780
-1.539	92.440	252.410
-9.073	83.859	243.023
-16.451	74.830	233.554
-23.943	65.499	223.958
-31.510	55.770	214.423
-38.903	46.076	205.060
-46.412	36.239	195.852
-53.882	26.373	186.805
-61.170	16.559	177.987
-68.467	6.685	169.631
-75.490	-3.214	161.557
-82.161	-12.978	153.902
-88.497	-22.742	146.461
-94.758	-33.190	139.419
-100.508	-43.401	132.779
-105.414	-52.893	126.610
-110.242	-62.763	120.724
-114.737	-72.654	115.338
-118.964	-82.260	110.576
-122.848	-91.634	106.485
-126.452	-100.648	103.072
-129.693	-109.279	100.340
-132.715	-117.571	98.328
-135.319	-125.509	97.117
-137.622	-133.151	96.621
-139.572	-140.471	96.656
-140.911	-147.541	97.440
-141.419	-154.530	98.771
-142.044	-160.779	100.793
-142.121	-166.628	103.511
-141.883	-171.864	106.803
-140.994	-176.458	110.842
-139.648	-180.403	115.460
-137.899	-183.823	120.764
-135.693	-186.816	126.610
-132.981	-189.424	132.908
-129.812	-191.532	139.781
-126.062	-193.244	147.081
-122.150	-194.389	154.821
-117.828	-195.023	163.029
-113.269	-195.083	171.515
-108.532	-194.603	180.495
-103.369	-193.634	189.908
-98.005	-192.034	199.554
-92.500	-189.863	209.429
-86.788	-187.124	219.589
-80.801	-184.004	229.759
-74.541	-180.393	240.002
-67.981	-176.477	250.228
-61.171	-172.236	260.335
-54.031	-167.589	270.279
-46.863	-162.701	280.110
-39.556	-157.401	289.683
-32.153	-151.703	299.018
-24.816	-146.167	308.075
-17.239	-139.591	316.773
-9.560	-132.857	325.395
-1.861	-125.881	333.313
5.925	-118.650	340.855
13.427	-111.697	347.883
20.977	-104.244	354.209
28.220	-96.651	359.801
35.449	-89.101	364.492
42.546	-81.343	368.290
49.421	-73.364	371.257
56.025	-65.981	373.366
62.780	-58.320	374.374
69.695	-50.517	374.457
76.745	-42.815	373.664
83.774	-35.068	371.761
90.962	-27.239	368.990
98.282	-19.411	365.140
105.960	-11.591	360.653
113.550	-3.587	355.458
120.971	4.584	349.818
128.263	12.877	343.713
135.175	21.252	337.251
141.719	29.346	330.584
147.186	37.351	323.719
152.162	44.979	316.548
157.218	52.222	309.150
161.854	59.172	301.396
165.627	66.024	293.453
169.289	72.829	285.369
172.939	79.402	276.857
175.994	85.918	268.192
178.776	92.259	259.290
181.214	97.999	249.936
183.171	103.155	240.283
184.506	107.747	230.488
185.082	111.794	220.706
184.758	115.315	211.091
183.396	118.329	201.800
180.856	120.855	192.988
177.977	123.754	185.064
175.088	126.698	177.876
172.160	129.770	171.371
169.202	132.662	165.432
165.978	135.263	159.855
162.551	137.337	154.576
158.688	138.712	149.163
153.961	139.279	143.976
149.028	139.016	138.842
143.003	138.013	134.170
136.406	136.262	129.831
129.380	133.958	126.037
121.755	131.404	123.156
113.634	128.634	121.152
105.579	125.723	119.951
97.277	122.622	119.477
88.608	119.166	119.535
79.561	115.207	120.108
69.963	110.749	121.161
60.146	105.725	122.723
49.851	100.428	124.729
39.444	94.723	127.367
29.464	88.904	130.566
19.388	82.914	134.447
9.753	76.760	138.947
0.105	70.448	143.832
-9.430	63.890	149.222
-18.887	57.171	154.937
-28.191	50.160	160.879
-37.662	42.845	167.119
-47.366	35.196	173.661
-57.258	27.257	180.402
-66.997	19.004	187.275
-76.865	10.522	194.459
-86.951	2.038	201.855
-96.797	-6.549	209.303
-106.110	-15.105	216.987
-114.880	-23.158	224.888
-123.279	-31.806	232.785
-131.227	-39.336	241.040
-139.515	-47.820	249.176
-147.148	-56.086	257.324
-154.675	-64.359	265.344
-161.305	-71.751	273.433
-167.170	-78.604	281.199
-172.299	-85.352	288.778
-177.332	-92.265	296.047
-181.897	-99.201	303.057
-185.867	-106.060	309.644
-189.688	-112.814	315.973
-193.069	-119.369	321.945
-195.989	-125.846	327.617
-198.538	-132.128	333.019
-200.864	-137.927	338.295
-202.920	-143.411	343.359
-204.704	-148.590	348.186
-205.989	-153.496	352.631
-206.750	-158.056	356.818
-207.124	-162.190	360.645
-206.981	-166.039	363.976
-206.326	-169.586	366.814
-205.166	-172.814	369.166
-203.506	-175.705	371.036
-201.353	-178.244	372.429
-198.712	-180.412	373.350
-195.590	-182.193	373.802
-191.993	-183.569	373.792
-187.926	-184.524	373.324
-183.395	-185.041	372.403
-178.408	-185.101	371.034
-173.050	-184.965	368.972
-167.418	-184.457	366.432
-160.832	-184.000	363.414
-154.147	-183.164	360.007
-146.991	-182.234	356.144
-139.526	-181.011	351.824
-132.118	-179.397	347.179
-124.277	-177.426	342.173
-116.453	-175.051	336.851
-108.483	-172.312	331.211
-100.422	-168.940	325.137
-92.614	-164.971	318.809
-84.558	-160.653	312.179
-76.310	-155.775	305.101
-67.897	-150.710	297.742
-59.119	-145.333	290.021
-50.266	-139.795	281.927
-41.347	-133.926	273.610
-32.512	-127.850	265.111
-23.639	-122.235	256.598
-14.256	-114.996	247.778
-4.746	-107.665	238.985
4.709	-100.077	230.375
14.488	-91.864	221.663
23.742	-84.763	213.144
33.371	-76.796	204.591
42.844	-68.656	196.135
51.842	-60.806	187.875
60.872	-52.790	179.583
69.639	-44.826	171.570
77.678	-36.711	163.812
85.728	-28.550	156.358
93.520	-20.472	149.398
101.091	-12.426	142.832
108.183	-4.338	136.870
114.665	4.035	131.378
121.048	12.232	126.426
127.103	20.386	121.977
132.776	28.220	117.928
138.414	35.934	114.517
143.695	43.588	111.536
148.557	51.251	109.264
153.063	58.709	107.673
157.197	66.170	106.950
160.987	73.718	106.816
164.251	80.211	107.326
166.704	86.598	108.464
168.585	92.586	110.280
169.679	98.141	112.473
170.226	103.176	115.258
170.152	107.707	118.499
169.675	111.980	122.348
168.632	115.992	126.733
167.071	119.720	131.734
165.240	122.948	137.307
162.528	125.871	143.572
159.291	128.402	150.417
155.721	130.509	157.794
152.137	132.148	165.552
148.018	133.399	173.875
143.682	134.262	182.416
138.241	134.815	191.178
132.858	134.914	200.250
127.122	134.488	209.471
121.048	133.558	218.800
114.648	132.148	228.199
107.938	130.280	237.626
100.932	127.978	247.042
93.644	125.265	256.408
86.089	122.164	265.684
78.280	118.697	274.829
70.232	114.889	283.805
61.960	110.761	292.571
53.477	106.337	301.088
44.799	101.640	309.316
35.938	96.693	317.216
26.900	91.679	324.845
17.767	86.530	332.092
8.639	81.219	339.035
-0.559	75.808	345.525
-9.555	70.140	351.522
-18.356	64.353	356.873
-27.194	58.765	361.563
-35.682	53.244	365.417
-44.282	47.862	368.502
-52.671	42.591	370.369
-61.228	37.229	371.261
-70.542	31.862	371.100
-78.900	25.914	369.996
-87.198	19.693	367.978
-95.649	13.288	365.214
-104.305	6.741	361.746
-113.273	0.003	357.652
-122.256	-6.633	352.974
-130.915	-13.399	347.753
-139.349	-20.057	342.075
-147.427	-26.638	336.151
-155.195	-33.190	329.822
-162.370	-39.838	323.105
-169.076	-45.972	316.160
-175.446	-52.530	309.031
-182.006	-59.704	301.927
-187.969	-66.401	294.534
-193.324	-72.638	286.891
-198.064	-78.431	279.037
-202.178	-83.797	271.014
-205.659	-88.752	262.860
-208.496	-93.311	254.615
-210.682	-97.491	246.319
-212.206	-101.309	238.013
-213.061	-104.781	229.735
-213.237	-107.922	221.526
-212.724	-110.750	213.425
-211.515	-113.280	205.472
-209.601	-115.529	197.708
-207.528	-117.806	190.423
-205.366	-119.961	183.547
-203.110	-122.065	177.120
-200.203	-124.295	171.049
-196.961	-126.257	165.236
-193.021	-127.733	159.908
-188.399	-128.752	155.048
-183.111	-129.340	150.642
-177.172	-129.527	146.671
-170.599	-129.338	143.119
-163.406	-128.803	139.969
-155.610	-127.947	137.205
-147.226	-126.800	134.810
-138.271	-125.388	132.768
-128.759	-123.739	131.062
-119.024	-121.739	129.837
-108.758	-119.287	129.195
-98.130	-116.592	129.224
-87.051	-113.197	129.761
-75.788	-109.276	130.975
-64.413	-104.994	132.879
-53.119	-100.418	135.316
-42.011	-95.977	138.374
-31.092	-91.578	141.763
-20.150	-87.393	145.516
-9.808	-84.394	149.391
1.530	-78.815	153.520
12.430	-74.249	157.990
23.631	-68.854	162.826
34.640	-63.810	168.017
45.895	-58.089	173.526
56.945	-52.309	179.517
68.378	-45.861	185.905
79.609	-38.918	192.756
90.858	-31.475	199.940
101.558	-24.196	207.342
111.925	-17.012	214.958
122.170	-9.989	222.643
132.409	-2.922	230.406
142.108	4.054	238.174
150.737	11.096	245.805
158.792	17.931	253.221
166.282	24.557	260.418
173.214	30.973	267.391
179.596	37.177	274.135
185.437	43.168	280.645
190.743	48.942	286.917
195.523	54.500	292.945
199.785	59.839	298.724
203.537	64.957	304.250
206.786	69.852	309.518
209.540	74.524	314.523
211.808	78.970	319.260
213.597	83.189	323.724
214.915	87.178	327.910
215.770	90.937	331.814
216.170	94.463	335.430
216.123	97.754	338.754
215.636	100.810	341.781
214.718	103.628	344.505
213.376	106.207	346.922
211.619	108.544	349.028
209.454	110.639	350.817
206.888	112.489	352.283
203.931	114.093	353.424
200.590	115.449	354.233
196.872	116.555	354.705
192.786	117.410	354.837
188.340	118.011	354.622
183.541	118.358	354.056
178.397	118.449	353.135
172.916	118.281	351.852
167.107	117.853	350.205
160.976	117.164	348.186
154.533	116.211	345.792
147.784	114.993	343.018
140.737	113.509	339.859
133.401	111.755	336.310
125.784	109.732	332.365
117.893	107.437	328.021
109.736	104.868	323.273
101.321	102.024	318.114
92.656	98.903	312.542
83.749	95.503	306.550
74.608	91.822	300.133
65.240	87.860	293.288
55.654	83.613	286.008
45.857	79.081	278.290
35.857	74.262	270.128
25.370	69.163	261.717
14.776	63.718	253.078
3.979	58.092	244.291
-6.599	52.192	235.444
-17.741	46.024	226.648
-28.485	39.956	218.044
-39.292	33.855	209.577
-50.030	27.826	201.231
-60.632	21.846	193.154
-71.071	16.048	185.309
-81.404	10.241	177.894
-91.030	4.455	170.778
-99.932	-1.239	163.857
-108.510	-7.243	157.267
-116.393	-12.962	150.650
-124.696	-19.869	144.568
-132.154	-26.256	138.709
-138.955	-31.939	133.332
-145.691	-37.971	128.541
-152.003	-43.940	124.221
-158.026	-49.939	120.563
-163.666	-55.951	117.397
-169.034	-61.998	114.920
-174.023	-67.947	113.157
-178.470	-73.719	112.067
-182.361	-79.330	111.532
-185.671	-84.639	111.559
-188.614	-89.616	112.238
-191.105	-94.156	113.547
-192.773	-98.403	115.381
-193.670	-102.289	117.877
-193.767	-105.828	120.825
-193.142	-109.010	124.207
-191.847	-111.919	128.302
-189.918	-114.649	132.776
-187.212	-117.284	137.706
-184.074	-119.788	143.198
-180.449	-122.114	149.180
-176.320	-124.279	155.602
-171.748	-126.174	162.473
-166.805	-127.770	169.663
-161.732	-128.965	177.423
-156.205	-129.854	185.486
-150.504	-130.422	193.921
-144.418	-130.578	202.610
-137.734	-130.412	211.348
-130.703	-129.795	220.303
-123.132	-128.845	229.260
-115.203	-127.482	238.327
-106.558	-125.933	247.143
-97.804	-124.032	255.918
-88.547	-121.992	264.440
-78.956	-119.662	272.780
-69.282	-117.108	281.053
-59.345	-114.450	289.020
-49.064	-111.350	296.756
-38.269	-106.880	304.042
-28.368	-104.454	311.359
-17.803	-100.855	318.114
-7.500	-97.713	324.597
2.923	-94.146	330.539
13.600	-90.514	335.986
24.167	-86.851	340.888
34.509	-83.001	345.261
44.828	-79.066	349.024
54.917	-75.129	352.228
65.021	-70.985	354.730
75.183	-66.766	356.588
85.010	-62.436	357.768
94.697	-57.932	358.329
104.015	-53.347	358.174
113.035	-48.785	357.301
121.839	-44.031	355.808
130.323	-39.250	353.668
138.574	-34.326	350.955
146.698	-29.327	347.822
154.550	-24.022	344.235
162.208	-18.501	340.277
169.472	-12.740	335.856
176.252	-7.057	331.040
182.545	-1.463	325.856
188.350	4.034	320.335
193.665	9.422	314.506
198.488	14.690	308.396
202.819	19.829	302.036
206.654	24.829	295.454
209.993	29.678	288.680
212.834	34.367	281.742
215.175	38.885	274.669
217.014	43.222	267.491
218.350	47.368	260.237
219.182	51.311	252.935
219.506	55.043	245.615
219.323	58.552	238.305
218.630	61.829	231.035
217.425	64.862	223.834
215.707	67.642	216.731
213.474	70.158	209.754
210.725	72.399	202.934
207.457	74.357	196.298
203.670	76.019	189.876
199.361	77.377	183.697
194.529	78.419	177.790
189.172	79.135	172.184
183.289	79.514	166.908
176.877	79.548	161.991
169.936	79.224	157.462
162.463	78.534	153.351
154.457	77.466	149.685
145.916	76.010	146.495
136.510	74.401	143.668
127.038	72.526	141.367
117.238	70.751	139.653
107.132	68.896	138.537
96.832	66.949	137.930
86.135	64.846	137.828
75.025	62.667	138.281
63.545	60.341	139.172
51.712	57.791	140.501
39.576	54.905	142.191
27.164	51.740	144.322
14.668	48.555	146.888
2.051	45.031	149.896
-10.422	41.622	153.403
-22.605	37.813	157.135
-34.695	33.792	161.305
-46.753	29.314	165.778
-58.524	24.791	170.534
-69.889	20.107	175.438
-81.328	15.190	180.573
-92.444	10.186	185.930
-103.557	5.145	191.507
-114.271	0.098	197.279
-124.743	-4.934	203.293
-134.795	-9.635	209.588
-144.714	-14.619	216.008
-154.129	-19.334	222.756
-162.915	-23.488	229.748
-172.024	-28.702	236.759
-180.559	-33.313	244.073
-188.500	-37.975	251.259
-196.353	-42.980	258.439
-203.587	-47.312	265.544
-210.558	-51.847	272.799
-216.893	-56.003	279.713
-222.112	-59.094	286.644
-226.702	-62.148	293.320
-230.673	-65.157	299.733
-234.033	-68.116	305.875
-236.793	-71.020	311.737
-238.961	-73.862	317.312
-240.547	-76.637	322.591
-241.561	-79.339	327.565
-242.012	-81.962	332.227
-241.909	-84.501	336.568
-241.262	-86.949	340.581
-240.080	-89.301	344.256
-238.373	-91.551	347.586
-236.150	-93.693	350.562
-233.420	-95.722	353.177
-230.194	-97.631	355.422
-226.480	-99.415	357.289
-222.288	-101.069	358.769
-217.627	-102.585	359.854
-212.507	-103.959	360.537
-206.937	-105.185	360.809
-200.926	-106.256	360.661
-194.485	-107.168	360.086
-187.622	-107.914	359.075
-180.347	-108.488	357.620
-172.669	-108.885	355.713
-164.598	-109.100	353.346
-156.144	-109.125	350.510
-147.315	-108.956	347.197
-138.121	-108.586	343.399
-128.571	-108.010	339.107
-118.675	-107.222	334.315
-108.443	-106.216	329.012
-97.884	-104.987	323.192
-87.007	-103.528	316.845
-75.684	-101.038	309.945
-64.925	-98.993	303.144
-54.034	-96.510	295.943
-43.455	-94.848	288.634
-32.763	-92.202	280.989
-22.197	-89.063	273.247
-11.462	-85.525	265.376
-0.842	-81.688	257.214
9.774	-78.091	249.065
20.278	-74.307	240.845
31.213	-70.478	232.433
41.944	-66.386	223.985
52.477	-62.186	215.529
62.864	-58.121	207.142
73.289	-54.063	198.782
83.528	-50.055	190.488
93.575	-46.027	182.442
103.317	-41.838	174.745
112.787	-37.490	167.329
121.937	-32.949	160.249
130.802	-28.119	153.618
139.232	-23.205	147.450
147.095	-18.164	141.671
154.613	-12.998	136.335
161.464	-7.834	131.488
167.729	-2.904	127.024
173.423	1.989	123.049
178.399	6.763	119.515
182.733	11.344	116.585
186.494	15.658	114.333
189.801	20.088	112.672
192.488	24.335	111.679
194.875	28.572	111.282
196.973	32.486	111.662
198.330	36.552	112.647
198.996	40.432	114.130
199.128	44.240	116.198
198.479	47.610	118.782
197.128	50.921	121.888
195.136	54.009	125.598
192.768	57.002	130.019
189.804	59.794	135.084
186.225	62.331	140.684
182.057	64.615	146.779
177.328	66.648	153.328
172.062	68.432	160.292
166.287	69.967	167.631
160.029	71.257	175.303
153.315	72.302	183.270
146.170	73.104	191.491
138.622	73.666	199.926
130.696	73.989	208.535
122.419	74.074	217.277
113.818	73.924	226.113
104.918	73.540	235.003
95.746	72.923	243.906
86.329	72.077	252.782
76.693	71.002	261.592
66.865	69.700	270.295
56.870	68.173	278.851
46.920	66.343	287.185
36.952	64.125	295.182
26.508	61.657	302.838
15.880	58.998	310.185
4.958	56.313	317.326
-6.159	53.631	324.056
-17.397	50.773	330.459
-28.486	47.721	336.477
-39.412	44.433	342.125
-50.071	40.774	347.172
-61.293	37.239	351.859
-72.542	33.663	355.940
-83.858	29.968	359.465
-94.908	26.245	362.384
-105.650	22.452	364.609
-116.059	18.628	366.217
-126.096	14.759	367.127
-135.754	10.853	367.369
-145.025	6.917	366.970
-153.901	2.959	365.959
-162.373	-1.013	364.364
-170.435	-4.993	362.214
-178.077	-8.971	359.537
-185.293	-12.942	356.361
-192.074	-16.896	352.716
-198.413	-20.827	348.628
-204.301	-24.728	344.128
-209.731	-28.589	339.243
-214.694	-32.405	334.001
-219.184	-36.166	328.432
-223.191	-39.867	322.563
-226.709	-43.498	316.422
-229.729	-47.053	310.039
-232.243	-50.524	303.442
-234.243	-53.903	296.659
-235.723	-57.183	289.718
-236.672	-60.356	282.648
-237.085	-63.415	275.478
-236.952	-66.351	268.235
-236.266	-69.158	260.948
-235.019	-71.828	253.646
-233.204	-74.353	246.357
-230.812	-76.726	239.109
-227.835	-78.939	231.931
-224.265	-80.984	224.851
-220.096	-82.855	217.898
-215.317	-84.542	211.100
-209.923	-86.039	204.485
-203.905	-87.339	198.082
-197.254	-88.433	191.919
-189.964	-89.314	186.025
-182.026	-89.974	180.428
-173.379	-90.566	175.122
-164.561	-90.960	170.296
-155.308	-91.207	165.861
-145.816	-91.179	161.833
-135.946	-90.949	158.133
-125.713	-90.494	154.951
-115.121	-89.813	152.224
-104.160	-88.874	149.651
-92.747	-87.771	147.617
-81.038	-86.551	145.677
-68.790	-85.161	144.246
-56.071	-83.706	142.967
-43.177	-81.951	142.178
-30.148	-79.816	141.936
-17.233	-78.296	142.116
-3.723	-74.868	142.764
9.438	-71.680	143.965
22.581	-67.485	145.612
35.126	-64.796	147.878
47.524	-61.059	150.465
59.942	-57.169	153.390
71.680	-53.987	156.678
83.431	-50.545	160.217
94.804	-47.008	164.071
106.029	-43.497	168.138
116.910	-40.009	172.502
127.458	-36.494	177.233
137.785	-32.801	182.306
147.647	-28.986	187.594
157.329	-24.970	193.229
166.521	-20.866	199.024
175.533	-16.623	205.169
184.244	-12.344	211.468
192.366	-7.944	218.032
199.928	-3.384	224.633
207.068	1.205	231.491
213.476	5.670	238.312
219.166	10.007	245.081
224.153	14.214	251.783
228.451	18.289	258.404
232.075	22.231	264.929
235.040	26.035	271.342
237.359	29.701	277.630
239.049	33.226	283.778
240.123	36.607	289.771
240.596	39.842	295.594
240.482	42.929	301.232
239.797	45.866	306.671
238.555	48.650	311.897
236.770	51.278	316.894
234.457	53.749	321.647
231.631	56.061	326.143
228.306	58.210	330.365
224.497	60.195	334.301
220.219	62.013	337.934
215.486	63.662	341.250
210.312	65.139	344.235
204.713	66.443	346.874
198.703	67.571	349.151
192.296	68.520	351.053
185.508	69.289	352.564
178.352	69.874	353.671
170.844	70.274	354.357
162.998	70.487	354.609
154.829	70.509	354.412
146.350	70.339	353.751
